ESWMinima	22
Con1Maxima	84
Pressure	Loading
0.01	0.0670143196
0.03	0.2375257641
0.05	0.5092793995
0.07	1.0493104104000002
0.08	1.5960125562
0.085	2.0073133478
0.09	2.4820069774
0.095	2.9233333688
0.1	3.2347456042
0.105	3.5383662723000002
0.11	3.7831411667
0.15	4.5956603047
0.175	4.7861728192
0.2	4.9071136878
0.225	5.0201478335
0.25	5.0730485803
0.275	5.1398126408
0.3	5.1790720018
0.325	5.2274214443
0.35	5.2628606198000005
0.375	5.2904880879
0.4	5.3220625575
0.425	5.3558246983
0.45	5.3778437412999995
0.475	5.3985410463
0.5	5.4122135578999995
0.7	5.532118217000001
0.9	5.612796568099999
1.0	5.6427689747
3.0	5.9220496562000005
5.0	6.1072849510000005
5.25	6.1202378111
5.5	6.0962069624
5.75	6.1253503435
6.0	6.1378851735
6.25	6.1352537429
6.5	6.1471369549
6.75	6.1354310539
7.0	6.145971809400001
7.25	6.1850237936
7.5	6.1512699402
7.75	6.1997916827
8.0	6.2366987814999995
8.25	6.196519330399999
8.5	6.1877398324
8.75	6.1764028154999995
9.0	6.2285055663
9.25	6.2154163502
9.5	6.231608316699999
9.75	6.2370849149000005
10.0	6.241822395900001
12.0	6.256196057
14.0	6.2999666347000005
15.0	6.3560026068
16.0	6.3060451267
18.0	6.341262277999999
20.0	6.3359403452
21.0	6.370257932
22.0	6.3819400309
23.0	6.3770751558
24.0	6.4402686154
25.0	6.3710810792
26.0	6.4152988854999995
27.0	6.375953278099999
28.0	6.4531118125
29.0	6.4159482872
30.0	6.4085403478
35.0	6.5696248199000005
40.0	6.7044636935
45.0	6.5644030099
50.0	6.616578516100001
55.0	6.5792568563
60.0	6.709374149099999
65.0	6.6437087424
70.0	6.7223857917
75.0	6.6540310390999995
80.0	6.7897224512
85.0	6.7456228844
90.0	6.7213172036
95.0	6.6854165375
100.0	6.794546564
250.0	6.953865024630001
300.0	6.999069717750001
350.0	6.999610709120001
400.0	7.047458926679999
450.0	6.963750291400001
500.0	6.99374099118
550.0	7.030906716840001
600.0	6.98306002509
650.0	7.011619387980001
700.0	7.002438241929999
750.0	7.0324524868
800.0	6.98313653866
850.0	7.0397087642
900.0	7.06066822928
950.0	7.02184230056
1000.0	6.993725749499999
1500.0	7.0332341972
2000.0	7.004727802770001
2500.0	7.014872515430001
3000.0	7.0149630500599995
3500.0	6.995213026109999
4000.0	7.033988347269999
4500.0	7.024656053230001
5000.0	7.06304405258
5500.0	7.04419746366
6000.0	7.019116304049999
6500.0	7.005737592310001
7000.0	7.0441211267599995
7500.0	7.025072589599999
8000.0	7.0150896090199995
8500.0	7.0441714612599995
9000.0	7.02475212881
9500.0	7.044049945399999
10000.0	7.0737080906
12000.0	6.9670752748
15000.0	7.04423218708
17000.0	7.05381827361
20000.0	7.027872224809999
21000.0	7.025013228939999
23000.0	7.059119761089998
25000.0	7.0548368323299995
30000.0	7.05838933278
35000.0	7.054333615919999
40000.0	7.08325511731
50000.0	7.06043118818
60000.0	7.082803439939999
70000.0	7.053854844
80000.0	7.07316840014
90000.0	7.053866038369999
100000.0	7.102171586679999
