ESWMinima	40
Con1Maxima	89
Pressure	Loading
0.1	0.0087777634
0.5	0.044271939100000005
1.0	0.0911550482
1.5	0.1394151847
2.0	0.1901590006
2.5	0.2427776639
3.0	0.2991204371
3.5	0.3559148475
4.0	0.4194920553
4.5	0.48885165070000003
5.0	0.5565311035
5.5	0.62765822
6.0	0.7095751948000001
6.5	0.7913818078
7.0	0.8780868309000001
7.5	0.9775812314
8.0	1.0749505736
8.5	1.1842604407
9.0	1.3104456686
9.5	1.4370565152
10.0	1.566906661
11.0	1.8820306234
12.0	2.229717998
13.0	2.7132113622000005
14.0	3.2026208922
15.0	3.85342926
16.0	4.4212792638
17.0	5.0436921609
18.0	5.594741824
19.0	6.013924693200001
20.0	6.319456080499999
21.0	6.580052274600001
22.0	6.7877026230999995
23.0	6.983029108099999
24.0	7.1459886202
25.0	7.2589681753
30.0	7.7438331463
35.0	8.039518061699999
40.0	8.2678045236
45.0	8.420018625800001
50.0	8.5612748338
55.0	8.682022635700001
60.0	8.7603438583
65.0	8.8301043549
70.0	8.9090404806
75.0	8.9759053386
80.0	9.0036627063
85.0	9.0491820141
90.0	9.105352631799999
95.0	9.127070246
100.0	9.187988583400001
250.0	9.73513934306
300.0	9.837236855
350.0	9.9370814207
400.0	10.00627124552
450.0	10.0594580148
500.0	10.134493647090002
550.0	10.203886271450001
600.0	10.255812662819999
650.0	10.30077886137
700.0	10.37945014076
750.0	10.435745538639999
800.0	10.486952230330001
850.0	10.530489870499999
900.0	10.620893563180001
950.0	10.66042081805
955.0	10.698775904849999
960.0	10.6724010934
970.0	10.71315522738
980.0	10.72360883306
990.0	10.687929420340001
1000.0	10.725595632080001
1100.0	10.845151968960002
1200.0	11.111720051660003
1300.0	11.23366401649
1400.0	12.800560920569998
1500.0	13.652197016680002
1550.0	16.386859087109997
1600.0	16.77321543237
1650.0	16.66651897573
1700.0	16.91188316431
1750.0	16.90735262649
1800.0	16.91675392971
1850.0	17.035917243180002
1900.0	16.99160840844
1950.0	16.936218272509997
2000.0	17.09189807057
2500.0	17.21068108078
3000.0	17.29694841543
3500.0	17.44706412824
4000.0	17.44822718983
4500.0	17.717982173370004
5000.0	17.529486836920004
5500.0	17.78265504779
6000.0	17.85028571601
6500.0	17.72558278185
7000.0	17.82717199416
7500.0	17.859246186900002
8000.0	17.9162462516
8500.0	17.931442662399995
9000.0	17.962048979989998
9500.0	17.919950016479998
10000.0	18.02960433919
12000.0	18.01556759316
15000.0	18.37824810925
17000.0	18.16567083875
20000.0	18.20665140569
21000.0	18.09507088529
23000.0	18.383959560260003
25000.0	18.417736372570005
30000.0	18.40144660796
35000.0	18.52385785725
40000.0	18.37576970574
50000.0	18.70145116698
60000.0	18.63431535555
70000.0	18.662865202419997
75000.0	18.602265302150002
80000.0	18.591590539520006
90000.0	18.538358310190002
100000.0	18.7542190028
